# File created with je-cap (rev 296)                                            
#u [km/s]       u*DF [(km/s)^-2]
 0.00000000E+00 0.10000000E-21
 0.37323813E+01 0.28734450E-06
 0.39656551E+01 0.30529363E-06
 0.41989290E+01 0.32324094E-06
 0.46654766E+01 0.35912976E-06
 0.51320243E+01 0.39501009E-06
 0.55985720E+01 0.43088112E-06
 0.60651196E+01 0.46674198E-06
 0.65316673E+01 0.50259183E-06
 0.69982149E+01 0.53842984E-06
 0.74647626E+01 0.57425516E-06
 0.79313103E+01 0.61006696E-06
 0.83978579E+01 0.64586439E-06
 0.93309533E+01 0.71741281E-06
 0.10264049E+02 0.78889373E-06
 0.11197144E+02 0.86030049E-06
 0.12130239E+02 0.93162647E-06
 0.13063335E+02 0.10028650E-05
 0.13996430E+02 0.10740096E-05
 0.14929525E+02 0.11450537E-05
 0.15862621E+02 0.12159907E-05
 0.16795716E+02 0.12868142E-05
 0.18661907E+02 0.14280950E-05
 0.20528097E+02 0.15688449E-05
 0.22394288E+02 0.17090137E-05
 0.24260478E+02 0.18485518E-05
 0.26126669E+02 0.19874106E-05
 0.27992860E+02 0.21255416E-05
 0.29859050E+02 0.22628997E-05
 0.31725241E+02 0.23994376E-05
 0.33591432E+02 0.25354163E-05
 0.37323813E+02 0.28052454E-05
 0.41056194E+02 0.30717005E-05
 0.44788576E+02 0.33343768E-05
 0.48520957E+02 0.35929371E-05
 0.52253338E+02 0.38470761E-05
 0.55985720E+02 0.40965205E-05
 0.59718101E+02 0.43410231E-05
 0.63450482E+02 0.45803525E-05
 0.67182864E+02 0.48143017E-05
 0.70915245E+02 0.50426944E-05
 0.74647626E+02 0.52653722E-05
 0.78380007E+02 0.54821897E-05
 0.82112389E+02 0.56930258E-05
 0.85844770E+02 0.58977870E-05
 0.89577151E+02 0.60963962E-05
 0.93309533E+02 0.62887895E-05
 0.97041914E+02 0.64749206E-05
 0.10077430E+03 0.66547630E-05
 0.10450668E+03 0.68283075E-05
 0.10823906E+03 0.69955615E-05
 0.11197144E+03 0.71565472E-05
 0.11570382E+03 0.73112976E-05
 0.11943620E+03 0.74598561E-05
 0.12316858E+03 0.76022767E-05
 0.12690096E+03 0.77386260E-05
 0.13063335E+03 0.78689812E-05
 0.13436573E+03 0.79934275E-05
 0.13809811E+03 0.81120563E-05
 0.14183049E+03 0.82249643E-05
 0.14556287E+03 0.83322538E-05
 0.14929525E+03 0.84340320E-05
 0.15302763E+03 0.85304106E-05
 0.15676001E+03 0.86215046E-05
 0.16049240E+03 0.87074308E-05
 0.16422478E+03 0.87883072E-05
 0.16795716E+03 0.88642522E-05
 0.17168954E+03 0.89353839E-05
 0.17542192E+03 0.90018204E-05
 0.17915430E+03 0.90636787E-05
 0.18288668E+03 0.91210745E-05
 0.18661907E+03 0.91741216E-05
 0.19035145E+03 0.92229319E-05
 0.19408383E+03 0.92676141E-05
 0.19781621E+03 0.93082742E-05
 0.20154859E+03 0.93450148E-05
 0.20528097E+03 0.93779344E-05
 0.20901335E+03 0.94071282E-05
 0.21274573E+03 0.94326869E-05
 0.21647812E+03 0.94546970E-05
 0.22021050E+03 0.94732408E-05
 0.22394288E+03 0.94883956E-05
 0.22767526E+03 0.95002346E-05
 0.23140764E+03 0.95088259E-05
 0.23514002E+03 0.95142329E-05
 0.23887240E+03 0.95165143E-05
 0.24260478E+03 0.95157239E-05
 0.24633717E+03 0.95119106E-05
 0.25006955E+03 0.95051187E-05
 0.25380193E+03 0.94953877E-05
 0.25753431E+03 0.94827525E-05
 0.26126669E+03 0.94672433E-05
 0.26499907E+03 0.94488862E-05
 0.26873145E+03 0.94277031E-05
 0.27246384E+03 0.94037122E-05
 0.27619622E+03 0.93769277E-05
 0.27992860E+03 0.93473605E-05
 0.28366098E+03 0.93150182E-05
 0.28739336E+03 0.92799058E-05
 0.29112574E+03 0.92420263E-05
 0.29485812E+03 0.92013838E-05
 0.29859050E+03 0.91579888E-05
 0.30232289E+03 0.91118755E-05
 0.30605527E+03 0.90616467E-05
 0.30978765E+03 0.90086046E-05
 0.31352003E+03 0.89528970E-05
 0.31725241E+03 0.88944822E-05
 0.32098479E+03 0.88333195E-05
 0.32471717E+03 0.87693712E-05
 0.32844955E+03 0.87026032E-05
 0.33218194E+03 0.86329829E-05
 0.33591432E+03 0.85604779E-05
 0.33964670E+03 0.84850569E-05
 0.34337908E+03 0.84066927E-05
 0.34711146E+03 0.83253631E-05
 0.35084384E+03 0.82410521E-05
 0.35457622E+03 0.81537512E-05
 0.35830861E+03 0.80634565E-05
 0.36204099E+03 0.79701642E-05
 0.36577337E+03 0.78738755E-05
 0.36950575E+03 0.77746070E-05
 0.37323813E+03 0.76723852E-05
 0.37697051E+03 0.75672365E-05
 0.38070289E+03 0.74591945E-05
 0.38443527E+03 0.73483120E-05
 0.38816766E+03 0.72346529E-05
 0.39190004E+03 0.71182866E-05
 0.39563242E+03 0.69992995E-05
 0.39936480E+03 0.68778009E-05
 0.40309718E+03 0.67539242E-05
 0.40682956E+03 0.66278732E-05
 0.41056194E+03 0.65001124E-05
 0.41429433E+03 0.63700201E-05
 0.41802671E+03 0.62375291E-05
 0.42175909E+03 0.61027929E-05
 0.42549147E+03 0.59659781E-05
 0.42922385E+03 0.58272624E-05
 0.43295623E+03 0.56868343E-05
 0.43668861E+03 0.55448917E-05
 0.44042099E+03 0.54016414E-05
 0.44415338E+03 0.52572979E-05
 0.44788576E+03 0.51120820E-05
 0.45161814E+03 0.49662200E-05
 0.45535052E+03 0.48199420E-05
 0.45908290E+03 0.46734809E-05
 0.46281528E+03 0.45270706E-05
 0.46654766E+03 0.43809454E-05
 0.47028004E+03 0.42353379E-05
 0.47401243E+03 0.40904779E-05
 0.47774481E+03 0.39465911E-05
 0.48147719E+03 0.38038980E-05
 0.48520957E+03 0.36626125E-05
 0.48894195E+03 0.35229408E-05
 0.49267433E+03 0.33850806E-05
 0.49640671E+03 0.32492200E-05
 0.50013910E+03 0.31155368E-05
 0.50387148E+03 0.29841977E-05
 0.50760386E+03 0.28553577E-05
 0.51133624E+03 0.27291598E-05
 0.51506862E+03 0.26057346E-05
 0.51880100E+03 0.24851998E-05
 0.52253338E+03 0.23676604E-05
 0.52626576E+03 0.22532086E-05
 0.52999815E+03 0.21419236E-05
 0.53373053E+03 0.20338720E-05
 0.53746291E+03 0.19291082E-05
 0.54119529E+03 0.18276743E-05
 0.54492767E+03 0.17296006E-05
 0.54866005E+03 0.16349064E-05
 0.55239243E+03 0.15435999E-05
 0.55612481E+03 0.14556793E-05
 0.55985720E+03 0.13711329E-05
 0.56358958E+03 0.12899399E-05
 0.56732196E+03 0.12120712E-05
 0.57105434E+03 0.11374896E-05
 0.57478672E+03 0.10661506E-05
 0.57851910E+03 0.99800323E-06
 0.58225148E+03 0.93299039E-06
 0.58598387E+03 0.87104955E-06
 0.58971625E+03 0.81211339E-06
 0.59344863E+03 0.75611032E-06
 0.59718101E+03 0.70296505E-06
 0.60091339E+03 0.65259914E-06
 0.60464577E+03 0.60493149E-06
 0.60837815E+03 0.55987883E-06
 0.61211053E+03 0.51735617E-06
 0.61584292E+03 0.47727724E-06
 0.61957530E+03 0.43955490E-06
 0.62330768E+03 0.40410147E-06
 0.62704006E+03 0.37082911E-06
 0.63077244E+03 0.33965013E-06
 0.63450482E+03 0.31047730E-06
 0.63823720E+03 0.28322407E-06
 0.64196958E+03 0.25780485E-06
 0.64570197E+03 0.23413520E-06
 0.64943435E+03 0.21213202E-06
 0.65316673E+03 0.19171376E-06
 0.65689911E+03 0.17280052E-06
 0.65876530E+03 0.16388381E-06
 0.66063149E+03 0.15531421E-06
 0.66249768E+03 0.14708227E-06
 0.66436387E+03 0.13917865E-06
 0.66623006E+03 0.13159415E-06
 0.66809625E+03 0.12431967E-06
 0.66996244E+03 0.11734628E-06
 0.67182864E+03 0.11066517E-06
 0.67369483E+03 0.10426766E-06
 0.67556102E+03 0.98145219E-07
 0.67742721E+03 0.92289438E-07
 0.67929340E+03 0.86692062E-07
 0.68115959E+03 0.81344968E-07
 0.68302578E+03 0.76240181E-07
 0.68489197E+03 0.71369858E-07
 0.68675816E+03 0.66726307E-07
 0.68862435E+03 0.62301970E-07
 0.69049054E+03 0.58089434E-07
 0.69235673E+03 0.54081425E-07
 0.69422292E+03 0.50270812E-07
 0.69608911E+03 0.46650600E-07
 0.69795530E+03 0.43213936E-07
 0.69982149E+03 0.39954101E-07
 0.70168769E+03 0.36864516E-07
 0.70355388E+03 0.33938733E-07
 0.70542007E+03 0.31170436E-07
 0.70728626E+03 0.28553440E-07
 0.70915245E+03 0.26081688E-07
 0.71101864E+03 0.23749243E-07
 0.71288483E+03 0.21550288E-07
 0.71475102E+03 0.19479122E-07
 0.71568412E+03 0.18489707E-07
 0.71661721E+03 0.17530149E-07
 0.71755031E+03 0.16599764E-07
 0.71848340E+03 0.15697874E-07
 0.71941650E+03 0.14823805E-07
 0.72034959E+03 0.13976888E-07
 0.72128269E+03 0.13156461E-07
 0.72221578E+03 0.12361862E-07
 0.72314888E+03 0.11592433E-07
 0.72408197E+03 0.10847520E-07
 0.72501507E+03 0.10126468E-07
 0.72594816E+03 0.94286233E-08
 0.72688126E+03 0.87533309E-08
 0.72781435E+03 0.80999317E-08
 0.72874745E+03 0.74677632E-08
 0.72968055E+03 0.68561549E-08
 0.73061364E+03 0.62644254E-08
 0.73154674E+03 0.56918793E-08
 0.73247983E+03 0.51378023E-08
 0.73294638E+03 0.48674596E-08
 0.73341293E+03 0.46014544E-08
 0.73387947E+03 0.43396886E-08
 0.73434602E+03 0.40820616E-08
 0.73481257E+03 0.38284696E-08
 0.73527912E+03 0.35788049E-08
 0.73574567E+03 0.33329560E-08
 0.73621221E+03 0.30908062E-08
 0.73667876E+03 0.28522330E-08
 0.73714531E+03 0.26171071E-08
 0.73761186E+03 0.23852916E-08
 0.73807840E+03 0.21566400E-08
 0.73831168E+03 0.20434520E-08
 0.73854495E+03 0.19309949E-08
 0.73877822E+03 0.18192471E-08
 0.73901150E+03 0.17081857E-08
 0.74274388E+03 0.10000000E-21
